* 9:35pm Jan 17  2017
* B02902030 vs B02902051
* 1 2 2 2 2 2 5 1 2 2 2 2 2 5
* X X X X
* X X X X
* X X X X
* X X X X
* X X X X
* X X X X
* X X X X
* X X X X
* first 0
* time 100
* 1. b7(N) c8(p)
* 2. c7(g) c7-b7
* 3. a6(N) a2(p)
* 4. d1(C) a5(P)
* 5. a4(P) c4(m)
* 6. a3(M) d8(R)
* 7. a3-a2 b6(P)
* 8. c3(p) b7-b6
* B02902051 wins
* Comment 0 0
0. 1484660125593
1. 1484660125640
2. 1484660125671
3. 1484660125750
4. 1484660125781
5. 1484660125843
6. 1484660125875
7. 1484660125937
8. 1484660125984
9. 1484660126031
10. 1484660126062
11. 1484660126109
12. 1484660126156
13. 1484660126203
14. 1484660126250
15. 1484660126296
